Time (s)	ex (deg)	thx (deg)	gazex (deg)
0	14.348663	24.874951	39.223614
0.005	13.620576	25.17177	38.792346
0.01	13.044241	25.450731	38.494972
0.015	12.448215	25.697745	38.14596
0.02	11.908621	25.987695	37.896316
0.025	11.676825	26.281639	37.958464
0.03	11.325564	26.499818	37.825382
0.035	10.827267	26.753893	37.58116
0.04	10.366614	26.978316	37.34493
0.045	10.16045	27.242289	37.402739
0.05	9.943246	27.464713	37.407959
0.055	9.646367	27.667135	37.313502
0.06	9.552015	27.84844	37.400455
0.065	9.358142	28.033529	37.391671
0.07	9.183266	28.171401	37.354667
0.075	9.073133	28.355911	37.429044
0.08	9.046193	28.502757	37.54895
0.085	9.010351	28.667439	37.67779
0.09	8.918559	28.8336	37.752159
0.095	8.826101	28.97494	37.801041
0.1	8.76662	29.080469	37.847089
0.105	8.643207	29.229126	37.872333
0.11	8.438131	29.347074	37.785205
0.115	8.243126	29.405445	37.648571
0.12	8.13323	29.501085	37.634315
0.125	8.010748	29.587197	37.597945
0.13	7.870403	29.667878	37.538281
0.135	7.747287	29.759063	37.50635
0.14	7.640203	29.826616	37.466819
0.145	7.635781	29.896479	37.53226
0.15	7.714804	29.940648	37.655452
0.155	7.815878	30.00237	37.818248
0.16	7.822756	30.040292	37.863048
0.165	7.813823	30.068357	37.88218
0.17	7.816114	30.091318	37.907432
0.175	7.761979	30.125007	37.886986
0.18	7.504469	30.140089	37.644558
0.185	7.286633	30.171446	37.458079
0.19	7.198807	30.192502	37.391309
0.195	7.115303	30.197835	37.313138
0.2	7.075882	30.22071	37.296592
0.205	7.015182	30.229162	37.244344
0.21	6.934953	30.225859	37.160812
0.215	6.920327	30.227612	37.147939
0.22	6.82853	30.257681	37.086211
0.225	6.698678	30.25315	36.951828
0.23	6.635948	30.247297	36.883245
0.235	6.587032	30.26017	36.847202
0.24	6.390624	30.237675	36.628299
0.245	6.268021	30.245973	36.513994
0.25	6.17667	30.238921	36.415591
0.255	5.996092	30.239199	36.235291
0.26	6.094021	30.248333	36.342354
0.265	6.09302	30.252656	36.345676
0.27	6.045885	30.255646	36.301531
0.275	6.044025	30.229442	36.273467
0.28	5.970894	30.221403	36.192297
0.285	6.004784	30.193155	36.197939
0.29	5.959512	30.176919	36.136431
0.295	5.8894	30.153125	36.042525
0.3	5.880378	30.141842	36.02222
0.305	5.895992	30.13767	36.033662
0.31	5.897679	30.117491	36.01517
0.315	5.900601	30.097273	35.997874
0.32	5.896261	30.077446	35.973707
0.325	5.852764	30.074266	35.92703
0.33	5.892733	30.054115	35.946848
0.335	5.928714	30.052853	35.981567
0.34	5.932031	30.026809	35.95884
0.345	5.926799	29.998544	35.925343
0.35	5.946976	29.995377	35.942353
0.355	5.980849	29.981514	35.962363
0.36	5.993562	30.000535	35.994097
0.365	6.058271	29.978535	36.036806
0.37	6.124904	29.951821	36.076725
0.375	6.182097	29.95613	36.138227
0.38	6.216284	29.951093	36.167377
0.385	6.256564	29.921249	36.177813
0.39	6.254799	29.908294	36.163093
0.395	6.222382	29.907894	36.130276
0.4	6.251903	29.885604	36.137507
0.405	6.281389	29.835871	36.11726
0.41	6.263208	29.8376	36.100808
0.415	6.236915	29.835835	36.07275
0.42	6.158448	29.787367	35.945815
0.425	6.144638	29.799194	35.943832
0.43	6.17272	29.774805	35.947525
0.435	6.187218	29.771271	35.958489
0.44	6.195221	29.751382	35.946603
0.445	6.174044	29.745862	35.919906
0.45	6.221648	29.693585	35.915233
0.455	6.256721	29.693307	35.950028
0.46	6.29735	29.689215	35.986565
0.465	6.332476	29.666061	35.998537
0.47	6.367591	29.668039	36.03563
0.475	6.385511	29.651008	36.036519
0.48	6.412752	29.61626	36.029012
0.485	6.43649	29.624472	36.060962
0.49	6.455499	29.630562	36.086061
0.495	6.479321	29.612959	36.09228
0.5	6.49804	29.56663	36.06467
0.505	6.507228	29.548194	36.055422
0.51	6.526632	29.506449	36.033081
0.515	6.542141	29.48524	36.027381
0.52	6.547875	29.466985	36.01486
0.525	6.544357	29.496002	36.040359
0.53	6.512195	29.492771	36.004966
0.535	6.495188	29.492017	35.987205
0.54	6.507986	29.475297	35.983283
0.545	6.516112	29.488988	36.0051
0.55	6.536603	29.458709	35.995312
0.555	6.594195	29.461507	36.055702
0.56	6.680643	29.442699	36.123342
0.565	6.697039	29.441679	36.138718
0.57	6.723439	29.433207	36.156646
0.575	6.725321	29.412377	36.137698
0.58	6.704429	29.395228	36.099657
0.585	6.643143	29.379856	36.022999
0.59	6.605854	29.357243	35.963097
0.595	6.593883	29.329554	35.923437
0.6	6.606734	29.312483	35.919217
0.605	6.62443	29.294135	35.918565
0.61	6.630092	29.276873	35.906965
0.615	6.636494	29.283241	35.919735
0.62	6.612676	29.23338	35.846056
0.625	6.610192	29.261631	35.871823
0.63	6.594016	29.219953	35.813969
0.635	6.565731	29.2015	35.767231
0.64	6.56584	29.191601	35.757441
0.645	6.548873	29.175495	35.724368
0.65	6.518684	29.133049	35.651733
0.655	6.497895	29.125915	35.62381
0.66	6.423487	29.11324	35.536727
0.665	6.337644	29.077528	35.415172
0.67	6.323604	29.056326	35.37993
0.675	6.307798	29.029468	35.337266
0.68	6.27287	28.991753	35.264623
0.685	6.231874	28.962394	35.194268
0.69	6.24608	28.948933	35.195013
0.695	6.24507	28.931809	35.176879
0.7	6.242434	28.91359	35.156024
0.705	6.23361	28.897862	35.131472
0.71	6.204234	28.883137	35.087371
0.715	6.190963	28.853834	35.044797
0.72	6.20503	28.810939	35.015969
0.725	6.228925	28.780151	35.009076
0.73	6.274412	28.745678	35.02009
0.735	6.301658	28.703607	35.005265
0.74	6.364242	28.621292	34.985534
0.745	6.421542	28.567564	34.989106
0.75	6.454575	28.48276	34.937335
0.755	6.483871	28.328106	34.811977
0.76	6.608996	28.220965	34.829961
0.765	6.697948	28.089015	34.786963
0.77	6.728982	27.910192	34.639174
0.775	6.747814	27.69035	34.438164
0.78	6.810968	27.452434	34.263402
0.785	6.923495	27.219075	34.14257
0.79	7.021731	26.949261	33.970992
0.795	7.076606	26.643448	33.720054
0.8	7.061641	26.310451	33.372092
0.805	6.388863	25.916822	32.305685
0.81	5.219876	25.517998	30.737874
0.815	3.313536	25.056286	28.369822
0.82	1.213227	24.569288	25.782515
0.825	-1.422998	24.002351	22.579353
0.83	-3.428372	23.390319	19.961947
0.835	-5.67293	22.779263	17.106333
0.84	-8.441942	22.11724	13.675298
0.845	-10.825151	21.461431	10.63628
0.85	-12.252616	20.756953	8.504337
0.855	-14.278862	20.048722	5.76986
0.86	-16.55946	19.273524	2.714064
0.865	-18.632336	18.54341	-0.088926
0.87	-20.02506	17.750813	-2.274247
0.875	-21.868912	16.89881	-4.970102
0.88	-24.660026	16.096502	-8.563524
0.885	-26.309671	15.25205	-11.057621
0.89	-27.761118	14.409328	-13.35179
0.895	-30.596671	13.527168	-17.069503
0.9	-33.896785	12.67974	-21.217045
0.905	-35.979073	11.814104	-24.164969
0.91	-37.360939	10.948997	-26.411942
0.915	-38.729489	10.131078	-28.598411
0.92	-40.960403	9.280347	-31.680056
0.925	-41.86831	8.395172	-33.473138
0.93	-41.905404	7.53205	-34.373354
0.935	-40.264944	6.671424	-33.59352
0.94	-40.029785	5.852737	-34.177048
0.945	-39.214777	4.992826	-34.221951
0.95	-38.04561	4.183416	-33.862194
0.955	-36.926719	3.353498	-33.573221
0.96	-35.152843	2.53307	-32.619773
0.965	-34.36295	1.721637	-32.641313
0.97	-33.768826	0.914432	-32.854394
0.975	-32.617653	0.140777	-32.476876
0.98	-30.200657	-0.649545	-30.850202
0.985	-28.347748	-1.389123	-29.736871
0.99	-27.134101	-2.161801	-29.295902
0.995	-25.746259	-2.95252	-28.698779
1	-25.185667	-3.67921	-28.864877
1.005	-24.904948	-4.428993	-29.333941
1.01	-25.137345	-5.171359	-30.308704
1.015	-26.033181	-5.866516	-31.899697
1.02	-28.198302	-6.576042	-34.774344
1.025	-29.992671	-7.266424	-37.259095
1.03	-30.808289	-7.944906	-38.753195
1.035	-30.766303	-8.575985	-39.342288
1.04	-29.223022	-9.210558	-38.43358
1.045	-27.955835	-9.8114	-37.767235
1.05	-27.206846	-10.395457	-37.602303
1.055	-26.205889	-10.998149	-37.204038
1.06	-25.2332	-11.592656	-36.825856
1.065	-24.332853	-12.161527	-36.49438
1.07	-23.537028	-12.71707	-36.254098
1.075	-22.90397	-13.274156	-36.178126
1.08	-22.446977	-13.757408	-36.204385
1.085	-22.160876	-14.271482	-36.432358
1.09	-22.003917	-14.809677	-36.813594
1.095	-21.634148	-15.273279	-36.907427
1.1	-21.232293	-15.783994	-37.016287
1.105	-21.067368	-16.231383	-37.298751
1.11	-21.010213	-16.659372	-37.669585
1.115	-20.958928	-17.098696	-38.057624
1.12	-20.681536	-17.484473	-38.166009
1.125	-20.068622	-17.870689	-37.939311
1.13	-19.46085	-18.227734	-37.688584
1.135	-18.838003	-18.581618	-37.419621
1.14	-18.213587	-18.929308	-37.142895
1.145	-17.762181	-19.267217	-37.029398
1.15	-17.289009	-19.57364	-36.862649
1.155	-16.879577	-19.872499	-36.752076
1.16	-16.1809	-20.13853	-36.31943
1.165	-15.489832	-20.37948	-35.869312
1.17	-14.708846	-20.612102	-35.320948
1.175	-14.136166	-20.853392	-34.989558
1.18	-13.835697	-21.086428	-34.922125
1.185	-13.755641	-21.22719	-34.982831
1.19	-13.748997	-21.417386	-35.166383
1.195	-13.43094	-21.584444	-35.015384
1.2	-12.634726	-21.737151	-34.371877
1.205	-11.745433	-21.87029	-33.615723
1.21	-10.75141	-21.984576	-32.735986
1.215	-9.835775	-22.086455	-31.92223
1.22	-9.280834	-22.204987	-31.485821
1.225	-9.150844	-22.314807	-31.465651
1.23	-8.91439	-22.334507	-31.248897
1.235	-8.635435	-22.409201	-31.044636
1.24	-8.454878	-22.436781	-30.891659
1.245	-8.304892	-22.482572	-30.787464
1.25	-8.100612	-22.503365	-30.603977
1.255	-7.893296	-22.517932	-30.411228
1.26	-7.813458	-22.55268	-30.366138
1.265	-7.876067	-22.523014	-30.399081
1.27	-7.848142	-22.52316	-30.371302
1.275	-7.715049	-22.517147	-30.232196
1.28	-7.539258	-22.546698	-30.085956
1.285	-7.394068	-22.512984	-29.907052
1.29	-7.359479	-22.498579	-29.858058
1.295	-7.37317	-22.471746	-29.844916
1.3	-7.476883	-22.457266	-29.934149
1.305	-7.449187	-22.42435	-29.873537
1.31	-7.447323	-22.380409	-29.827732
1.315	-7.453703	-22.354533	-29.808236
1.32	-7.511201	-22.298839	-29.81004
1.325	-7.562503	-22.255568	-29.818071
1.33	-7.615083	-22.190238	-29.805321
1.335	-7.719244	-22.140894	-29.860138
1.34	-7.342051	-22.115794	-29.457845
1.345	-7.20478	-22.0474	-29.25218
1.35	-7.054317	-22.011684	-29.066001
1.355	-6.956224	-21.944748	-28.900972
1.36	-6.891465	-21.896005	-28.78747
1.365	-6.830324	-21.822485	-28.652809
1.37	-6.815814	-21.78384	-28.599654
1.375	-6.840975	-21.752213	-28.593188
1.38	-6.726394	-21.715592	-28.441986
1.385	-6.66165	-21.651685	-28.313335
1.39	-6.728321	-21.600618	-28.328939
1.395	-6.983011	-21.566134	-28.549145
1.4	-7.120036	-21.478203	-28.598239
1.405	-7.200847	-21.439866	-28.640713
1.41	-7.338355	-21.383097	-28.721452
1.415	-7.466276	-21.309398	-28.775674
1.42	-7.472062	-21.286166	-28.758228
1.425	-7.513635	-21.259057	-28.772692
1.43	-7.500606	-21.200782	-28.701388
1.435	-7.356089	-21.184109	-28.540198
1.44	-7.211715	-21.150372	-28.362087
1.445	-7.241769	-21.118704	-28.360473
1.45	-7.241417	-21.083381	-28.324798
1.455	-7.282412	-21.07893	-28.361342
1.46	-7.366194	-21.045788	-28.411982
1.465	-7.42075	-21.043024	-28.463774
1.47	-7.456179	-21.036362	-28.492541
1.475	-7.504906	-20.98982	-28.494726
1.48	-7.579592	-20.97608	-28.555672
1.485	-7.618491	-20.93526	-28.553751
1.49	-7.599634	-20.895299	-28.494933
1.495	-7.658776	-20.908421	-28.567197
1.5	-7.716803	-20.821674	-28.538477
1.505	-7.788706	-20.78335	-28.572056
1.51	-7.866447	-20.731818	-28.598265
1.515	-7.900001	-20.656228	-28.556229
1.52	-7.910834	-20.570432	-28.481266
1.525	-7.882302	-20.460472	-28.342774
1.53	-7.896983	-20.385319	-28.282302
1.535	-7.849526	-20.28918	-28.138706
1.54	-7.857154	-20.171345	-28.028499
1.545	-7.879355	-20.056295	-27.93565
1.55	-7.901355	-19.882073	-27.783428
1.555	-7.939023	-19.695006	-27.634029
1.56	-7.986922	-19.524326	-27.511248
1.565	-8.028417	-19.332809	-27.361226
1.57	-8.068248	-19.084859	-27.153107
1.575	-8.09924	-18.819863	-26.919103
1.58	-8.142226	-18.516796	-26.659022
1.585	-8.225414	-18.14225	-26.367664
1.59	-8.386075	-17.783344	-26.169419
1.595	-8.693345	-17.376024	-26.069369
1.6	-9.016589	-16.941702	-25.958291
1.605	-9.462171	-16.462222	-25.924393
1.61	-9.81598	-15.92902	-25.745
1.615	-9.916609	-15.360573	-25.277182
1.62	-9.775411	-14.810548	-24.585959
1.625	-9.216088	-14.197651	-23.413739
1.63	-7.691281	-13.561608	-21.252889
1.635	-5.229265	-12.892112	-18.121377
1.64	-2.472947	-12.280477	-14.753424
1.645	-0.396596	-11.574691	-11.971287
1.65	1.822076	-10.919436	-9.09736
1.655	4.484094	-10.225933	-5.741839
1.66	6.874524	-9.459783	-2.585259
1.665	8.299037	-8.696573	-0.397536
1.67	9.792397	-7.987661	1.804736
1.675	11.722825	-7.216243	4.506582
1.68	13.485824	-6.433328	7.052496
1.685	14.461128	-5.651205	8.809923
1.69	15.937201	-4.854043	11.083158
1.695	17.98147	-4.045467	13.936003
1.7	20.19469	-3.232433	16.962257
1.705	22.688128	-2.443883	20.244245
1.71	25.603559	-1.601038	24.002521
1.715	28.244725	-0.841525	27.4032
1.72	30.765553	-0.052832	30.712721
1.725	31.798214	0.747183	32.545397
1.73	32.742817	1.498554	34.241371
1.735	34.004944	2.308869	36.313813
1.74	34.963846	3.123632	38.087478
1.745	36.639096	3.884495	40.523591
1.75	37.682385	4.647533	42.329918
1.755	37.810212	5.375318	43.18553
1.76	38.001659	6.210951	44.21261
1.765	37.556788	6.973198	44.529986
1.77	36.952189	7.710541	44.66273
1.775	36.573547	8.475589	45.049136
1.78	35.388479	9.205742	44.594221
1.785	34.736111	9.938717	44.674828
1.79	34.28168	10.652112	44.933792
1.795	33.35394	11.367168	44.721108
1.8	31.581172	12.080747	43.661919
1.805	30.665452	12.769406	43.434858
1.81	29.785728	13.473396	43.259124
1.815	28.924901	14.096951	43.021852
1.82	27.750582	14.732648	42.48323
1.825	26.974603	15.394649	42.369252
1.83	26.391314	16.034986	42.4263
1.835	25.523138	16.648703	42.171841
1.84	24.319414	17.237346	41.55676
1.845	23.588533	17.804306	41.392839
1.85	22.423006	18.371469	40.794475
1.855	21.647787	18.944671	40.592458
1.86	20.760218	19.528449	40.288667
1.865	20.102404	20.008787	40.111191
1.87	19.53468	20.582194	40.116874
1.875	19.319221	21.097752	40.416973
1.88	19.013701	21.579904	40.593605
1.885	18.864396	22.076138	40.940534
1.89	18.751896	22.491976	41.243872
1.895	18.542347	22.963837	41.506184
1.9	18.432943	23.434966	41.867909
1.905	18.296957	23.839187	42.136144
1.91	18.102046	24.263972	42.366018
1.915	17.645526	24.594519	42.240045
1.92	16.432256	24.966182	41.398438
1.925	15.352274	25.351697	40.703971
1.93	14.364874	25.716779	40.081653
1.935	13.687725	26.022187	39.709912
1.94	12.92574	26.340793	39.266533
1.945	12.53148	26.62611	39.15759
1.95	12.231963	26.890389	39.122352
1.955	11.88016	27.180319	39.060479
1.96	11.27463	27.430462	38.705092
1.965	11.050449	27.649335	38.699784
1.97	10.860031	27.846076	38.706107
1.975	10.414898	28.069043	38.483941
1.98	9.991166	28.244253	38.235419
1.985	9.578272	28.447515	38.025787
1.99	9.317938	28.584416	37.902354
1.995	9.069512	28.77641	37.845922
2	8.942532	28.882913	37.825445
2.005	8.92986	28.987157	37.917017
2.01	9.001698	29.122992	38.12469
2.015	8.655347	29.22451	37.879857
2.02	8.262856	29.303754	37.56661
2.025	7.923972	29.380272	37.304244
2.03	7.672608	29.446047	37.118655
2.035	7.35685	29.501342	36.858192
2.04	7.10446	29.555569	36.660029
2.045	6.90546	29.61238	36.51784
2.05	6.791155	29.659432	36.450587
2.055	6.512589	29.684717	36.197306
2.06	6.502462	29.700868	36.20333
2.065	6.554978	29.721814	36.276792
2.07	6.534002	29.766987	36.300989
2.075	6.448103	29.788967	36.23707
2.08	6.551915	29.803449	36.355364
2.085	6.571191	29.802904	36.374095
2.09	6.537064	29.802493	36.339557
2.095	6.650947	29.788281	36.439228
2.1	6.492079	29.783211	36.27529
2.105	6.358651	29.769413	36.128064
2.11	6.254939	29.753594	36.008533
2.115	6.186598	29.758133	35.944731
2.12	6.195227	29.73011	35.925337
2.125	6.217295	29.72532	35.942615
2.13	6.215072	29.694558	35.90963
2.135	5.993693	29.680712	35.674405
2.14	6.126098	29.656913	35.783011
2.145	6.250645	29.620419	35.871064
2.15	6.294991	29.590604	35.885595
2.155	6.294407	29.56906	35.863467
2.16	6.502743	29.560382	36.063125
2.165	6.689405	29.533871	36.223276
2.17	6.674275	29.520157	36.194432
2.175	6.679486	29.494859	36.174345
2.18	6.658855	29.480851	36.139706
2.185	6.581657	29.474433	36.05609
2.19	6.407973	29.441895	35.849868
2.195	6.348126	29.407328	35.755454
2.2	6.412513	29.373315	35.785828
2.205	6.456624	29.339067	35.795691
2.21	6.533932	29.282901	35.816833
2.215	6.674298	29.254985	35.929283
2.22	6.762296	29.23763	35.999926
2.225	6.850865	29.16141	36.012275
2.23	6.912082	29.112732	36.024814
2.235	6.914156	29.051364	35.96552
2.24	6.994827	29.013711	36.008538
2.245	7.063841	28.919218	35.983059
2.25	7.088443	28.853269	35.941712
2.255	7.123421	28.822712	35.946133
2.26	7.163637	28.717372	35.881009
2.265	7.204727	28.606112	35.810839
2.27	7.258144	28.537513	35.795657
2.275	7.320597	28.420171	35.740768
2.28	7.298094	28.289444	35.587538
2.285	7.284819	28.189562	35.474381
2.29	7.312975	28.022579	35.335554
2.295	7.348799	27.878454	35.227253
2.3	7.387423	27.728878	35.116301
2.305	7.423237	27.588044	35.011281
2.31	7.453681	27.403955	34.857636
2.315	7.485431	27.201846	34.687277
2.32	7.604821	26.961858	34.566679
2.325	7.722917	26.746939	34.469856
2.33	7.774977	26.500656	34.275633
2.335	7.777077	26.193763	33.97084
2.34	7.793664	25.934577	33.728241
2.345	7.815578	25.60716	33.422738
2.35	7.85892	25.244247	33.103167
2.355	7.934357	24.873828	32.808185
2.36	8.070097	24.482228	32.552325
2.365	8.186767	24.103874	32.290641
2.37	8.290918	23.685119	31.976037
2.375	8.461448	23.228621	31.690069
2.38	8.795885	22.767341	31.563226
2.385	9.097635	22.292024	31.389659
2.39	9.281815	21.749933	31.031748
2.395	9.607027	21.217156	30.824183
2.4	9.685052	20.680914	30.365966
2.405	9.711841	20.121903	29.833744
2.41	9.661477	19.56639	29.227867
2.415	8.526101	18.947474	27.473575
2.42	6.672857	18.378852	25.051709
2.425	4.627263	17.722153	22.349416
2.43	2.074656	17.044265	19.118921
2.435	-1.177245	16.355407	15.178162
2.44	-3.236928	15.703321	12.466393
2.445	-5.496114	15.049614	9.5535
2.45	-8.190877	14.345746	6.154869
2.455	-10.538674	13.706368	3.167694
2.46	-12.0773	13.031079	0.953779
2.465	-14.120471	12.342327	-1.778144
2.47	-16.39846	11.620777	-4.777683
2.475	-18.691186	10.939329	-7.751857
2.48	-20.119192	10.244205	-9.874987
2.485	-21.542898	9.562332	-11.980566
2.49	-23.735597	8.867799	-14.867798
2.495	-26.414589	8.127741	-18.286848
2.5	-27.911661	7.426527	-20.485134
2.505	-29.916408	6.726887	-23.189521
2.51	-32.517943	6.055623	-26.46232
2.515	-34.744031	5.382262	-29.361769
2.52	-35.233819	4.681284	-30.552535
2.525	-35.365143	4.041591	-31.323552
2.53	-34.678735	3.371633	-31.307102
2.535	-33.360373	2.717355	-30.643018
2.54	-32.589658	2.053286	-30.536372
2.545	-31.744293	1.449232	-30.295061
2.55	-30.743991	0.799035	-29.944956
2.555	-28.890822	0.203827	-28.686995
2.56	-27.903749	-0.390783	-28.294532
2.565	-26.803547	-1.001367	-27.804914
2.57	-25.878181	-1.566981	-27.445162
2.575	-25.05392	-2.153363	-27.207283
2.58	-24.232168	-2.735525	-26.967693
2.585	-23.478082	-3.290337	-26.768419
2.59	-22.382787	-3.78088	-26.163667
2.595	-21.552927	-4.327722	-25.880649
2.6	-21.175632	-4.898228	-26.07386
2.605	-20.910955	-5.415047	-26.326002
2.61	-20.400794	-5.878401	-26.279195
2.615	-19.604321	-6.370024	-25.974345
2.62	-18.915306	-6.825757	-25.741063
2.625	-18.277358	-7.32756	-25.604918
2.63	-17.805947	-7.774733	-25.58068
2.635	-17.620781	-8.190792	-25.811573
2.64	-18.054677	-8.620335	-26.675012
2.645	-18.761112	-9.045815	-27.806927
2.65	-19.697787	-9.441121	-29.138908
2.655	-20.519992	-9.815873	-30.335865
2.66	-20.978262	-10.206308	-31.18457
2.665	-21.2082	-10.558418	-31.766618
2.67	-21.17665	-10.910871	-32.087521
2.675	-20.858175	-11.225814	-32.083989
2.68	-20.476988	-11.548738	-32.025726
2.685	-20.123342	-11.873854	-31.997196
2.69	-19.916941	-12.152992	-32.069933
2.695	-19.724954	-12.459301	-32.184255
2.7	-19.646984	-12.758147	-32.405131
2.705	-19.478804	-12.979585	-32.458389
2.71	-19.112044	-13.211509	-32.323553
2.715	-18.680939	-13.442232	-32.123171
2.72	-18.386206	-13.660933	-32.047139
2.725	-18.113408	-13.886685	-32.000093
2.73	-17.886443	-14.040668	-31.927111
2.735	-17.694279	-14.208985	-31.903264
2.74	-17.577188	-14.3898	-31.966988
2.745	-17.464582	-14.516688	-31.98127
2.75	-17.359839	-14.62799	-31.987829
2.755	-17.22936	-14.739945	-31.969305
2.76	-17.03588	-14.924785	-31.960665
2.765	-16.662918	-15.042159	-31.705077
2.77	-16.283751	-15.106415	-31.390166
2.775	-15.842748	-15.213196	-31.055944
2.78	-15.446845	-15.273614	-30.720459
2.785	-15.223444	-15.334659	-30.558103
2.79	-14.99022	-15.409498	-30.399718
2.795	-14.857312	-15.445592	-30.302904
2.8	-14.675388	-15.489097	-30.164485
2.805	-14.226673	-15.545654	-29.772327
